Time (s)   V_cap (kV)               E_cap                    I_load (kA)              E_load                   P_load (MW)              
 0.00000E+00   2.00000E+02   8.00000E+02   0.00000E+00   0.00000E+00   0.00000E+00
 1.25000E-09   1.99977E+02   7.99815E+02   1.41863E+00   2.63986E-03   3.76542E+00
 2.75000E-09   1.99892E+02   7.99138E+02   3.09616E+00   2.13143E-02   1.79358E+01
 4.25000E-09   1.99745E+02   7.97962E+02   4.74601E+00   7.13392E-02   4.21436E+01
 5.75000E-09   1.99537E+02   7.96297E+02   6.36811E+00   1.67256E-01   7.58743E+01
 7.25000E-09   1.99268E+02   7.94153E+02   7.96236E+00   3.22839E-01   1.18620E+02
 8.75000E-09   1.98940E+02   7.91541E+02   9.52872E+00   5.51111E-01   1.69880E+02
 1.02500E-08   1.98554E+02   7.88470E+02   1.10671E+01   8.64349E-01   2.29162E+02
 1.17500E-08   1.98110E+02   7.84952E+02   1.25775E+01   1.27410E+00   2.95980E+02
 1.32500E-08   1.97611E+02   7.80999E+02   1.40599E+01   1.79119E+00   3.69859E+02
 1.47500E-08   1.97056E+02   7.76621E+02   1.55141E+01   2.42574E+00   4.50329E+02
 1.62500E-08   1.96447E+02   7.71832E+02   1.69404E+01   3.18718E+00   5.36931E+02
 1.77500E-08   1.95786E+02   7.66642E+02   1.83385E+01   4.08426E+00   6.29216E+02
 1.92500E-08   1.95072E+02   7.61065E+02   1.97085E+01   5.12505E+00   7.26742E+02
 2.07500E-08   1.94308E+02   7.55112E+02   2.10504E+01   6.31699E+00   8.29079E+02
 2.22500E-08   1.93494E+02   7.48798E+02   2.23643E+01   7.66687E+00   9.35804E+02
 2.37500E-08   1.92631E+02   7.42135E+02   2.36502E+01   9.18086E+00   1.04651E+03
 2.52500E-08   1.91721E+02   7.35136E+02   2.49080E+01   1.08645E+01   1.16079E+03
 2.67500E-08   1.90763E+02   7.27814E+02   2.61379E+01   1.27228E+01   1.27825E+03
 2.82500E-08   1.89761E+02   7.20182E+02   2.73399E+01   1.47602E+01   1.39852E+03
 2.97500E-08   1.88713E+02   7.12254E+02   2.85141E+01   1.69804E+01   1.52122E+03
 3.12500E-08   1.87622E+02   7.04043E+02   2.96604E+01   1.93868E+01   1.64600E+03
 3.27500E-08   1.86489E+02   6.95564E+02   3.07791E+01   2.19821E+01   1.77250E+03
 3.42500E-08   1.85314E+02   6.86828E+02   3.18702E+01   2.47686E+01   1.90039E+03
 3.57500E-08   1.84099E+02   6.77850E+02   3.29338E+01   2.77481E+01   2.02935E+03
 3.72500E-08   1.82845E+02   6.68644E+02   3.39699E+01   3.09217E+01   2.15905E+03
 3.87500E-08   1.81552E+02   6.59221E+02   3.49787E+01   3.42904E+01   2.28919E+03
 4.02500E-08   1.80222E+02   6.49597E+02   3.59603E+01   3.78545E+01   2.41948E+03
 4.17500E-08   1.78855E+02   6.39783E+02   3.69149E+01   4.16139E+01   2.54963E+03
 4.32500E-08   1.77453E+02   6.29794E+02   3.78425E+01   4.55681E+01   2.67937E+03
 4.47500E-08   1.76017E+02   6.19642E+02   3.87432E+01   4.97163E+01   2.80844E+03
 4.62500E-08   1.74548E+02   6.09340E+02   3.96173E+01   5.40573E+01   2.93659E+03
 4.77500E-08   1.73046E+02   5.98901E+02   4.04648E+01   5.85893E+01   3.06358E+03
 4.92500E-08   1.71514E+02   5.88338E+02   4.12860E+01   6.33104E+01   3.18918E+03
 5.07500E-08   1.69950E+02   5.77662E+02   4.20809E+01   6.82184E+01   3.31317E+03
 5.22500E-08   1.68358E+02   5.66887E+02   4.28498E+01   7.33105E+01   3.43535E+03
 5.37500E-08   1.66737E+02   5.56024E+02   4.35927E+01   7.85839E+01   3.55551E+03
 5.52500E-08   1.65089E+02   5.45085E+02   4.43100E+01   8.40354E+01   3.67347E+03
 5.67500E-08   1.63414E+02   5.34082E+02   4.50017E+01   8.96615E+01   3.78905E+03
 5.82500E-08   1.61714E+02   5.23027E+02   4.56680E+01   9.54584E+01   3.90210E+03
 5.97500E-08   1.59989E+02   5.11931E+02   4.63092E+01   1.01422E+02   4.01244E+03
 6.12500E-08   1.58241E+02   5.00804E+02   4.69254E+01   1.07549E+02   4.11993E+03
 6.27500E-08   1.56470E+02   4.89658E+02   4.75169E+01   1.13833E+02   4.22444E+03
 6.42500E-08   1.54678E+02   4.78503E+02   4.80838E+01   1.20272E+02   4.32584E+03
 6.57500E-08   1.52864E+02   4.67349E+02   4.86263E+01   1.26859E+02   4.42401E+03
 6.72500E-08   1.51031E+02   4.56207E+02   4.91447E+01   1.33590E+02   4.51885E+03
 6.87500E-08   1.49179E+02   4.45085E+02   4.96392E+01   1.40460E+02   4.61024E+03
 7.02500E-08   1.47308E+02   4.33995E+02   5.01100E+01   1.47464E+02   4.69810E+03
 7.17500E-08   1.45421E+02   4.22944E+02   5.05573E+01   1.54596E+02   4.78236E+03
 7.32500E-08   1.43517E+02   4.11941E+02   5.09814E+01   1.61850E+02   4.86293E+03
 7.47500E-08   1.41597E+02   4.00997E+02   5.13825E+01   1.69222E+02   4.93974E+03
 7.62500E-08   1.39663E+02   3.90117E+02   5.17608E+01   1.76705E+02   5.01275E+03
 7.77500E-08   1.37716E+02   3.79312E+02   5.21166E+01   1.84294E+02   5.08190E+03
 7.92500E-08   1.35755E+02   3.68588E+02   5.24501E+01   1.91982E+02   5.14715E+03
 8.07500E-08   1.33782E+02   3.57953E+02   5.27616E+01   1.99765E+02   5.20847E+03
 8.22500E-08   1.31798E+02   3.47415E+02   5.30513E+01   2.07635E+02   5.26583E+03
 8.37500E-08   1.29804E+02   3.36979E+02   5.33195E+01   2.15588E+02   5.31920E+03
 8.52500E-08   1.27799E+02   3.26654E+02   5.35664E+01   2.23616E+02   5.36858E+03
 8.67500E-08   1.25786E+02   3.16444E+02   5.37924E+01   2.31715E+02   5.41396E+03
 8.82500E-08   1.23765E+02   3.06357E+02   5.39975E+01   2.39878E+02   5.45533E+03
 8.97500E-08   1.21737E+02   2.96397E+02   5.41822E+01   2.48099E+02   5.49272E+03
 9.12500E-08   1.19702E+02   2.86571E+02   5.43467E+01   2.56372E+02   5.52611E+03
 9.27500E-08   1.17661E+02   2.76883E+02   5.44912E+01   2.64691E+02   5.55555E+03
 9.42500E-08   1.15615E+02   2.67338E+02   5.46161E+01   2.73050E+02   5.58103E+03
 9.57500E-08   1.13565E+02   2.57941E+02   5.47215E+01   2.81443E+02   5.60260E+03
 9.72500E-08   1.11511E+02   2.48696E+02   5.48078E+01   2.89866E+02   5.62029E+03
 9.87500E-08   1.09455E+02   2.39607E+02   5.48753E+01   2.98310E+02   5.63414E+03
 1.00250E-07   1.07396E+02   2.30678E+02   5.49242E+01   3.06772E+02   5.64418E+03
 1.01750E-07   1.05336E+02   2.21912E+02   5.49548E+01   3.15245E+02   5.65048E+03
 1.03250E-07   1.03275E+02   2.13313E+02   5.49674E+01   3.23724E+02   5.65307E+03
 1.04750E-07   1.01213E+02   2.04883E+02   5.49623E+01   3.32202E+02   5.65201E+03
 1.06250E-07   9.91527E+01   1.96625E+02   5.49397E+01   3.40676E+02   5.64737E+03
 1.07750E-07   9.70931E+01   1.88542E+02   5.49000E+01   3.49140E+02   5.63921E+03
 1.09250E-07   9.50354E+01   1.80635E+02   5.48434E+01   3.57587E+02   5.62759E+03
 1.10750E-07   9.29801E+01   1.72906E+02   5.47702E+01   3.66014E+02   5.61258E+03
 1.12250E-07   9.09278E+01   1.65357E+02   5.46807E+01   3.74415E+02   5.59425E+03
 1.13750E-07   8.88792E+01   1.57990E+02   5.45752E+01   3.82785E+02   5.57269E+03
 1.15250E-07   8.68349E+01   1.50806E+02   5.44540E+01   3.91120E+02   5.54796E+03
 1.16750E-07   8.47954E+01   1.43805E+02   5.43174E+01   3.99414E+02   5.52015E+03
 1.18250E-07   8.27613E+01   1.36989E+02   5.41656E+01   4.07664E+02   5.48934E+03
 1.19750E-07   8.07332E+01   1.30357E+02   5.39989E+01   4.15864E+02   5.45562E+03
 1.21250E-07   7.87116E+01   1.23910E+02   5.38177E+01   4.24012E+02   5.41906E+03
 1.22750E-07   7.66971E+01   1.17649E+02   5.36222E+01   4.32101E+02   5.37976E+03
 1.24250E-07   7.46901E+01   1.11572E+02   5.34127E+01   4.40129E+02   5.33781E+03
 1.25750E-07   7.26913E+01   1.05680E+02   5.31895E+01   4.48092E+02   5.29329E+03
 1.27250E-07   7.07011E+01   9.99729E+01   5.29529E+01   4.55985E+02   5.24631E+03
 1.28750E-07   6.87200E+01   9.44487E+01   5.27032E+01   4.63805E+02   5.19694E+03
 1.30250E-07   6.67485E+01   8.91072E+01   5.24407E+01   4.71549E+02   5.14530E+03
 1.31750E-07   6.47871E+01   8.39474E+01   5.21656E+01   4.79214E+02   5.09146E+03
 1.33250E-07   6.28362E+01   7.89679E+01   5.18782E+01   4.86795E+02   5.03552E+03
 1.34750E-07   6.08964E+01   7.41674E+01   5.15789E+01   4.94291E+02   4.97758E+03
 1.36250E-07   5.89680E+01   6.95445E+01   5.12679E+01   5.01697E+02   4.91773E+03
 1.37750E-07   5.70515E+01   6.50974E+01   5.09455E+01   5.09013E+02   4.85608E+03
 1.39250E-07   5.51472E+01   6.08243E+01   5.06120E+01   5.16234E+02   4.79271E+03
 1.40750E-07   5.32557E+01   5.67234E+01   5.02677E+01   5.23358E+02   4.72771E+03
 1.42250E-07   5.13773E+01   5.27925E+01   4.99128E+01   5.30383E+02   4.66119E+03
 1.43750E-07   4.95124E+01   4.90295E+01   4.95476E+01   5.37307E+02   4.59324E+03
 1.45250E-07   4.76613E+01   4.54321E+01   4.91724E+01   5.44128E+02   4.52394E+03
 1.46750E-07   4.58246E+01   4.19978E+01   4.87876E+01   5.50843E+02   4.45340E+03
 1.48250E-07   4.40024E+01   3.87242E+01   4.83933E+01   5.57452E+02   4.38171E+03
 1.49750E-07   4.21952E+01   3.56087E+01   4.79898E+01   5.63952E+02   4.30895E+03
 1.51250E-07   4.04033E+01   3.26485E+01   4.75775E+01   5.70341E+02   4.23522E+03
 1.52750E-07   3.86270E+01   2.98409E+01   4.71565E+01   5.76620E+02   4.16061E+03
 1.54250E-07   3.68666E+01   2.71830E+01   4.67272E+01   5.82785E+02   4.08520E+03
 1.55750E-07   3.51225E+01   2.46719E+01   4.62899E+01   5.88837E+02   4.00909E+03
 1.57250E-07   3.33950E+01   2.23045E+01   4.58447E+01   5.94774E+02   3.93235E+03
 1.58750E-07   3.16843E+01   2.00779E+01   4.53920E+01   6.00595E+02   3.85507E+03
 1.60250E-07   2.99907E+01   1.79888E+01   4.49320E+01   6.06300E+02   3.77734E+03
 1.61750E-07   2.83145E+01   1.60342E+01   4.44651E+01   6.11888E+02   3.69923E+03
 1.63250E-07   2.66559E+01   1.42107E+01   4.39913E+01   6.17359E+02   3.62083E+03
 1.64750E-07   2.50152E+01   1.25152E+01   4.35111E+01   6.22711E+02   3.54221E+03
 1.66250E-07   2.33926E+01   1.09443E+01   4.30247E+01   6.27946E+02   3.46345E+03
 1.67750E-07   2.17884E+01   9.49472E+00   4.25323E+01   6.33062E+02   3.38462E+03
 1.69250E-07   2.02028E+01   8.16307E+00   4.20341E+01   6.38060E+02   3.30580E+03
 1.70750E-07   1.86360E+01   6.94598E+00   4.15305E+01   6.42940E+02   3.22706E+03
 1.72250E-07   1.70881E+01   5.84006E+00   4.10216E+01   6.47702E+02   3.14846E+03
 1.73750E-07   1.55594E+01   4.84190E+00   4.05077E+01   6.52347E+02   3.07008E+03
 1.75250E-07   1.40501E+01   3.94809E+00   3.99892E+01   6.56874E+02   2.99198E+03
 1.76750E-07   1.25603E+01   3.15521E+00   3.94661E+01   6.61284E+02   2.91421E+03
 1.78250E-07   1.10902E+01   2.45984E+00   3.89387E+01   6.65578E+02   2.83685E+03
 1.79750E-07   9.63993E+00   1.85857E+00   3.84073E+01   6.69756E+02   2.75995E+03
 1.81250E-07   8.20968E+00   1.34798E+00   3.78722E+01   6.73820E+02   2.68358E+03
 1.82750E-07   6.79957E+00   9.24682E-01   3.73334E+01   6.77769E+02   2.60777E+03
 1.84250E-07   5.40972E+00   5.85301E-01   3.67914E+01   6.81605E+02   2.53259E+03
 1.85750E-07   4.04025E+00   3.26473E-01   3.62462E+01   6.85330E+02   2.45809E+03
 1.87250E-07   2.69129E+00   1.44861E-01   3.56981E+01   6.88943E+02   2.38432E+03
 1.88750E-07   1.36293E+00   3.71515E-02   3.51474E+01   6.92446E+02   2.31132E+03
 1.90250E-07   5.52666E-02   6.10880E-05   3.45942E+01   6.95841E+02   2.23914E+03
 1.91750E-07  -1.23161E+00   3.03372E-02   3.40388E+01   6.99128E+02   2.16782E+03
 1.93250E-07  -2.49762E+00   1.24762E-01   3.34814E+01   7.02310E+02   2.09740E+03
 1.94750E-07  -3.74269E+00   2.80155E-01   3.29222E+01   7.05386E+02   2.02792E+03
 1.96250E-07  -4.96677E+00   4.93375E-01   3.23614E+01   7.08359E+02   1.95942E+03
 1.97750E-07  -6.16978E+00   7.61324E-01   3.17992E+01   7.11231E+02   1.89193E+03
 1.99250E-07  -7.35169E+00   1.08095E+00   3.12358E+01   7.14002E+02   1.82548E+03
 2.00750E-07  -8.51245E+00   1.44924E+00   3.06713E+01   7.16675E+02   1.76011E+03
 2.02250E-07  -9.65203E+00   1.86323E+00   3.01061E+01   7.19251E+02   1.69584E+03
 2.03750E-07  -1.07704E+01   2.32003E+00   2.95403E+01   7.21731E+02   1.63269E+03
 2.05250E-07  -1.18675E+01   2.81677E+00   2.89741E+01   7.24118E+02   1.57070E+03
 2.06750E-07  -1.29435E+01   3.35066E+00   2.84076E+01   7.26413E+02   1.50988E+03
 2.08250E-07  -1.39981E+01   3.91895E+00   2.78411E+01   7.28618E+02   1.45026E+03
 2.09750E-07  -1.50315E+01   4.51894E+00   2.72747E+01   7.30735E+02   1.39186E+03
 2.11250E-07  -1.60437E+01   5.14802E+00   2.67087E+01   7.32766E+02   1.33468E+03
 2.12750E-07  -1.70347E+01   5.80361E+00   2.61431E+01   7.34712E+02   1.27876E+03
 2.14250E-07  -1.80045E+01   6.48321E+00   2.55782E+01   7.36575E+02   1.22409E+03
 2.15750E-07  -1.89531E+01   7.18437E+00   2.50141E+01   7.38358E+02   1.17069E+03
 2.17250E-07  -1.98805E+01   7.90471E+00   2.44510E+01   7.40061E+02   1.11858E+03
 2.18750E-07  -2.07869E+01   8.64191E+00   2.38891E+01   7.41688E+02   1.06776E+03
 2.20250E-07  -2.16722E+01   9.39371E+00   2.33285E+01   7.43240E+02   1.01823E+03
 2.21750E-07  -2.25366E+01   1.01579E+01   2.27694E+01   7.44719E+02   9.70010E+02
 2.23250E-07  -2.33800E+01   1.09324E+01   2.22119E+01   7.46127E+02   9.23092E+02
 2.24750E-07  -2.42025E+01   1.17152E+01   2.16562E+01   7.47466E+02   8.77482E+02
 2.26250E-07  -2.50042E+01   1.25042E+01   2.11024E+01   7.48738E+02   8.33180E+02
 2.27750E-07  -2.57852E+01   1.32975E+01   2.05508E+01   7.49944E+02   7.90186E+02
 2.29250E-07  -2.65455E+01   1.40933E+01   2.00013E+01   7.51088E+02   7.48497E+02
 2.30750E-07  -2.72853E+01   1.48898E+01   1.94542E+01   7.52170E+02   7.08111E+02
 2.32250E-07  -2.80046E+01   1.56852E+01   1.89096E+01   7.53193E+02   6.69020E+02
 2.33750E-07  -2.87036E+01   1.64779E+01   1.83677E+01   7.54158E+02   6.31221E+02
 2.35250E-07  -2.93822E+01   1.72663E+01   1.78285E+01   7.55069E+02   5.94706E+02
 2.36750E-07  -3.00407E+01   1.80489E+01   1.72922E+01   7.55925E+02   5.59465E+02
 2.38250E-07  -3.06792E+01   1.88243E+01   1.67589E+01   7.56730E+02   5.25490E+02
 2.39750E-07  -3.12977E+01   1.95909E+01   1.62288E+01   7.57486E+02   4.92770E+02
 2.41250E-07  -3.18964E+01   2.03476E+01   1.57019E+01   7.58193E+02   4.61293E+02
 2.42750E-07  -3.24754E+01   2.10930E+01   1.51784E+01   7.58855E+02   4.31047E+02
 2.44250E-07  -3.30348E+01   2.18260E+01   1.46584E+01   7.59472E+02   4.02018E+02
 2.45750E-07  -3.35748E+01   2.25454E+01   1.41420E+01   7.60047E+02   3.74190E+02
 2.47250E-07  -3.40955E+01   2.32501E+01   1.36292E+01   7.60582E+02   3.47550E+02
 2.48750E-07  -3.45971E+01   2.39391E+01   1.31203E+01   7.61077E+02   3.22080E+02
 2.50250E-07  -3.50796E+01   2.46116E+01   1.26154E+01   7.61536E+02   2.97765E+02
 2.51750E-07  -3.55433E+01   2.52665E+01   1.21144E+01   7.61959E+02   2.74585E+02
 2.53250E-07  -3.59882E+01   2.59031E+01   1.16175E+01   7.62349E+02   2.52523E+02
 2.54750E-07  -3.64146E+01   2.65205E+01   1.11249E+01   7.62707E+02   2.31559E+02
 2.56250E-07  -3.68227E+01   2.71181E+01   1.06365E+01   7.63034E+02   2.11675E+02
 2.57750E-07  -3.72124E+01   2.76953E+01   1.01525E+01   7.63333E+02   1.92849E+02
 2.59250E-07  -3.75841E+01   2.82514E+01   9.67295E+00   7.63604E+02   1.75062E+02
 2.60750E-07  -3.79380E+01   2.87858E+01   9.19796E+00   7.63850E+02   1.58291E+02
 2.62250E-07  -3.82741E+01   2.92981E+01   8.72759E+00   7.64071E+02   1.42516E+02
 2.63750E-07  -3.85926E+01   2.97878E+01   8.26192E+00   7.64270E+02   1.27713E+02
 2.65250E-07  -3.88938E+01   3.02545E+01   7.80103E+00   7.64448E+02   1.13862E+02
 2.66750E-07  -3.91777E+01   3.06979E+01   7.34499E+00   7.64606E+02   1.00938E+02
 2.68250E-07  -3.94447E+01   3.11177E+01   6.89385E+00   7.64745E+02   8.89197E+01
 2.69750E-07  -3.96948E+01   3.15136E+01   6.44770E+00   7.64867E+02   7.77827E+01
 2.71250E-07  -3.99283E+01   3.18854E+01   6.00659E+00   7.64973E+02   6.75039E+01
 2.72750E-07  -4.01454E+01   3.22330E+01   5.57057E+00   7.65065E+02   5.80596E+01
 2.74250E-07  -4.03462E+01   3.25563E+01   5.13973E+00   7.65143E+02   4.94258E+01
 2.75750E-07  -4.05309E+01   3.28551E+01   4.71409E+00   7.65210E+02   4.15786E+01
 2.77250E-07  -4.06998E+01   3.31295E+01   4.29373E+00   7.65265E+02   3.44939E+01
 2.78750E-07  -4.08530E+01   3.33794E+01   3.87868E+00   7.65310E+02   2.81476E+01
 2.80250E-07  -4.09908E+01   3.36049E+01   3.46900E+00   7.65347E+02   2.25155E+01
 2.81750E-07  -4.11133E+01   3.38060E+01   3.06473E+00   7.65375E+02   1.75735E+01
 2.83250E-07  -4.12207E+01   3.39829E+01   2.66591E+00   7.65398E+02   1.32974E+01
 2.84750E-07  -4.13133E+01   3.41358E+01   2.27259E+00   7.65414E+02   9.66312E+00
 2.86250E-07  -4.13912E+01   3.42647E+01   1.88481E+00   7.65425E+02   6.64672E+00
 2.87750E-07  -4.14547E+01   3.43699E+01   1.50259E+00   7.65433E+02   4.22429E+00
 2.89250E-07  -4.15040E+01   3.44517E+01   1.12597E+00   7.65437E+02   2.37207E+00
 2.90750E-07  -4.15393E+01   3.45102E+01   7.54987E-01   7.65439E+02   1.06648E+00
 2.92250E-07  -4.15607E+01   3.45458E+01   3.89664E-01   7.65440E+02   2.84089E-01
 2.93750E-07  -4.15686E+01   3.45589E+01   3.00285E-02   7.65440E+02   1.68710E-03
 2.95250E-07  -4.15630E+01   3.45497E+01  -3.23895E-01   7.65440E+02   1.96283E-01
 2.96750E-07  -4.15443E+01   3.45186E+01  -6.72084E-01   7.65441E+02   8.45126E-01
 2.98250E-07  -4.15127E+01   3.44661E+01  -1.01452E+00   7.65443E+02   1.92573E+00
 2.99750E-07  -4.14683E+01   3.43924E+01  -1.35118E+00   7.65448E+02   3.41588E+00
 3.01250E-07  -4.14114E+01   3.42981E+01  -1.68206E+00   7.65455E+02   5.29368E+00
 3.02750E-07  -4.13422E+01   3.41836E+01  -2.00714E+00   7.65465E+02   7.53753E+00
 3.04250E-07  -4.12610E+01   3.40493E+01  -2.32640E+00   7.65479E+02   1.01261E+01
 3.05750E-07  -4.11678E+01   3.38958E+01  -2.63985E+00   7.65497E+02   1.30386E+01
 3.07250E-07  -4.10631E+01   3.37235E+01  -2.94747E+00   7.65520E+02   1.62544E+01
 3.08750E-07  -4.09468E+01   3.35329E+01  -3.24925E+00   7.65547E+02   1.97533E+01
 3.10250E-07  -4.08194E+01   3.33245E+01  -3.54519E+00   7.65581E+02   2.35155E+01
 3.11750E-07  -4.06810E+01   3.30989E+01  -3.83530E+00   7.65620E+02   2.75215E+01
 3.13250E-07  -4.05319E+01   3.28566E+01  -4.11957E+00   7.65665E+02   3.17524E+01
 3.14750E-07  -4.03721E+01   3.25982E+01  -4.39800E+00   7.65717E+02   3.61896E+01
 3.16250E-07  -4.02021E+01   3.23242E+01  -4.67060E+00   7.65776E+02   4.08149E+01
 3.17750E-07  -4.00219E+01   3.20351E+01  -4.93737E+00   7.65842E+02   4.56106E+01
 3.19250E-07  -3.98319E+01   3.17316E+01  -5.19833E+00   7.65916E+02   5.05594E+01
 3.20750E-07  -3.96321E+01   3.14141E+01  -5.45348E+00   7.65997E+02   5.56443E+01
 3.22250E-07  -3.94229E+01   3.10834E+01  -5.70283E+00   7.66085E+02   6.08491E+01
 3.23750E-07  -3.92045E+01   3.07398E+01  -5.94639E+00   7.66182E+02   6.61578E+01
 3.25250E-07  -3.89770E+01   3.03842E+01  -6.18418E+00   7.66286E+02   7.15548E+01
 3.26750E-07  -3.87408E+01   3.00169E+01  -6.41622E+00   7.66399E+02   7.70251E+01
 3.28250E-07  -3.84959E+01   2.96387E+01  -6.64252E+00   7.66520E+02   8.25543E+01
 3.29750E-07  -3.82426E+01   2.92500E+01  -6.86310E+00   7.66650E+02   8.81282E+01
 3.31250E-07  -3.79812E+01   2.88515E+01  -7.07799E+00   7.66787E+02   9.37332E+01
 3.32750E-07  -3.77119E+01   2.84437E+01  -7.28720E+00   7.66934E+02   9.93562E+01
 3.34250E-07  -3.74348E+01   2.80272E+01  -7.49075E+00   7.67088E+02   1.04984E+02
 3.35750E-07  -3.71501E+01   2.76026E+01  -7.68868E+00   7.67251E+02   1.10606E+02
 3.37250E-07  -3.68582E+01   2.71705E+01  -7.88101E+00   7.67423E+02   1.16209E+02
 3.38750E-07  -3.65591E+01   2.67314E+01  -8.06777E+00   7.67603E+02   1.21781E+02
 3.40250E-07  -3.62532E+01   2.62859E+01  -8.24898E+00   7.67791E+02   1.27314E+02
 3.41750E-07  -3.59405E+01   2.58344E+01  -8.42468E+00   7.67987E+02   1.32795E+02
 3.43250E-07  -3.56214E+01   2.53777E+01  -8.59490E+00   7.68192E+02   1.38215E+02
 3.44750E-07  -3.52960E+01   2.49161E+01  -8.75967E+00   7.68405E+02   1.43565E+02
 3.46250E-07  -3.49645E+01   2.44503E+01  -8.91903E+00   7.68625E+02   1.48836E+02
 3.47750E-07  -3.46271E+01   2.39808E+01  -9.07301E+00   7.68854E+02   1.54020E+02
 3.49250E-07  -3.42841E+01   2.35080E+01  -9.22164E+00   7.69090E+02   1.59107E+02
 3.50750E-07  -3.39356E+01   2.30325E+01  -9.36497E+00   7.69334E+02   1.64092E+02
 3.52250E-07  -3.35818E+01   2.25547E+01  -9.50303E+00   7.69585E+02   1.68966E+02
 3.53750E-07  -3.32229E+01   2.20753E+01  -9.63587E+00   7.69843E+02   1.73722E+02
 3.55250E-07  -3.28592E+01   2.15945E+01  -9.76352E+00   7.70108E+02   1.78355E+02
 3.56750E-07  -3.24907E+01   2.11130E+01  -9.88603E+00   7.70380E+02   1.82859E+02
