Time (s)   VLOAD                    
 0.00000E+00   0.00000E+00
 5.25000E-11   3.04870E+00
 1.07500E-10   6.23561E+00
 1.62500E-10   9.40818E+00
 2.17500E-10   1.25662E+01
 2.72500E-10   1.57097E+01
 3.27500E-10   1.88389E+01
 3.82500E-10   2.19538E+01
 4.37500E-10   2.50544E+01
 4.92500E-10   2.81409E+01
 5.47500E-10   3.12132E+01
 6.02500E-10   3.42715E+01
 6.57500E-10   3.73158E+01
 7.12500E-10   4.03462E+01
 7.67500E-10   4.33627E+01
 8.22500E-10   4.63655E+01
 8.77500E-10   4.93545E+01
 9.32500E-10   5.23298E+01
 9.87500E-10   5.52915E+01
 1.04250E-09   5.82397E+01
 1.09750E-09   6.11744E+01
 1.15250E-09   6.40957E+01
 1.20750E-09   6.70036E+01
 1.26250E-09   6.98982E+01
 1.31750E-09   7.27796E+01
 1.37250E-09   7.56478E+01
 1.42750E-09   7.85029E+01
 1.48250E-09   8.13450E+01
 1.53750E-09   8.41740E+01
 1.59250E-09   8.69901E+01
 1.64750E-09   8.97934E+01
 1.70250E-09   9.25837E+01
 1.75750E-09   9.53614E+01
 1.81250E-09   9.81263E+01
 1.86750E-09   1.00879E+02
 1.92250E-09   1.03618E+02
 1.97750E-09   1.06346E+02
 2.03250E-09   1.09060E+02
 2.08750E-09   1.11763E+02
 2.14250E-09   1.14452E+02
 2.19750E-09   1.17130E+02
 2.25250E-09   1.19796E+02
 2.30750E-09   1.22449E+02
 2.36250E-09   1.25090E+02
 2.41750E-09   1.27719E+02
 2.47250E-09   1.30336E+02
 2.52750E-09   1.32941E+02
 2.58250E-09   1.35534E+02
 2.63750E-09   1.38115E+02
 2.69250E-09   1.40684E+02
 2.74750E-09   1.43242E+02
 2.80250E-09   1.45788E+02
 2.85750E-09   1.48322E+02
 2.91250E-09   1.50845E+02
 2.96750E-09   1.53356E+02
 3.02250E-09   1.55856E+02
 3.07750E-09   1.58344E+02
 3.13250E-09   1.60821E+02
 3.18750E-09   1.63287E+02
 3.24250E-09   1.65741E+02
 3.29750E-09   1.68184E+02
 3.35250E-09   1.70616E+02
 3.40750E-09   1.73037E+02
 3.46250E-09   1.75446E+02
 3.51750E-09   1.77845E+02
 3.57250E-09   1.80233E+02
 3.62750E-09   1.82610E+02
 3.68250E-09   1.84976E+02
 3.73750E-09   1.87331E+02
 3.79250E-09   1.89675E+02
 3.84750E-09   1.92008E+02
 3.90250E-09   1.94331E+02
 3.95750E-09   1.96644E+02
 4.01250E-09   1.98945E+02
 4.06750E-09   2.01237E+02
 4.12250E-09   2.03517E+02
 4.17750E-09   2.05788E+02
 4.23250E-09   2.08047E+02
 4.28750E-09   2.10297E+02
 4.34250E-09   2.12536E+02
 4.39750E-09   2.14765E+02
 4.45250E-09   2.16984E+02
 4.50750E-09   2.19193E+02
 4.56250E-09   2.21391E+02
 4.61750E-09   2.23580E+02
 4.67250E-09   2.25758E+02
 4.72750E-09   2.27927E+02
 4.78250E-09   2.30086E+02
 4.83750E-09   2.32234E+02
 4.89250E-09   2.34373E+02
 4.94750E-09   2.36502E+02
 5.00250E-09   2.38622E+02
 5.05750E-09   2.40731E+02
 5.11250E-09   2.42831E+02
 5.16750E-09   2.44922E+02
 5.22250E-09   2.47003E+02
 5.27750E-09   2.49074E+02
 5.33250E-09   2.51136E+02
 5.38750E-09   2.53188E+02
 5.44250E-09   2.55231E+02
 5.49750E-09   2.57265E+02
 5.55250E-09   2.59289E+02
 5.60750E-09   2.61305E+02
 5.66250E-09   2.63311E+02
 5.71750E-09   2.65307E+02
 5.77250E-09   2.67295E+02
 5.82750E-09   2.69273E+02
 5.88250E-09   2.71243E+02
 5.93750E-09   2.73203E+02
 5.99250E-09   2.75155E+02
 6.04750E-09   2.77098E+02
 6.10250E-09   2.79031E+02
 6.15750E-09   2.80956E+02
 6.21250E-09   2.82872E+02
 6.26750E-09   2.84779E+02
 6.32250E-09   2.86678E+02
 6.37750E-09   2.88568E+02
 6.43250E-09   2.90449E+02
 6.48750E-09   2.92322E+02
 6.54250E-09   2.94186E+02
 6.59750E-09   2.96041E+02
 6.65250E-09   2.97888E+02
 6.70750E-09   2.99727E+02
 6.76250E-09   3.01557E+02
 6.81750E-09   3.03379E+02
 6.87250E-09   3.05192E+02
 6.92750E-09   3.06997E+02
 6.98250E-09   3.08794E+02
 7.03750E-09   3.10583E+02
 7.09250E-09   3.12363E+02
 7.14750E-09   3.14136E+02
 7.20250E-09   3.15900E+02
 7.25750E-09   3.17656E+02
 7.31250E-09   3.19404E+02
 7.36750E-09   3.21144E+02
 7.42250E-09   3.22877E+02
 7.47750E-09   3.24601E+02
 7.53250E-09   3.26317E+02
 7.58750E-09   3.28026E+02
 7.64250E-09   3.29727E+02
 7.69750E-09   3.31419E+02
 7.75250E-09   3.33105E+02
 7.80750E-09   3.34782E+02
 7.86250E-09   3.36452E+02
 7.91750E-09   3.38114E+02
 7.97250E-09   3.39768E+02
 8.02750E-09   3.41415E+02
 8.08250E-09   3.43055E+02
 8.13750E-09   3.44687E+02
 8.19250E-09   3.46311E+02
 8.24750E-09   3.47928E+02
 8.30250E-09   3.49538E+02
 8.35750E-09   3.51140E+02
 8.41250E-09   3.52735E+02
 8.46750E-09   3.54323E+02
 8.52250E-09   3.55903E+02
 8.57750E-09   3.57476E+02
 8.63250E-09   3.59042E+02
 8.68750E-09   3.60601E+02
 8.74250E-09   3.62153E+02
 8.79750E-09   3.63697E+02
 8.85250E-09   3.65235E+02
 8.90750E-09   3.66765E+02
 8.96250E-09   3.68289E+02
 9.01750E-09   3.69805E+02
 9.07250E-09   3.71314E+02
 9.12750E-09   3.72817E+02
 9.18250E-09   3.74313E+02
 9.23750E-09   3.75802E+02
 9.29250E-09   3.77284E+02
 9.34750E-09   3.78759E+02
 9.40250E-09   3.80227E+02
 9.45750E-09   3.81689E+02
 9.51250E-09   3.83144E+02
 9.56750E-09   3.84593E+02
 9.62250E-09   3.86035E+02
 9.67750E-09   3.87470E+02
 9.73250E-09   3.88898E+02
 9.78750E-09   3.90320E+02
 9.84250E-09   3.91736E+02
 9.89750E-09   3.93145E+02
 9.95250E-09   3.94548E+02
 1.00075E-08   3.95944E+02
 1.00625E-08   3.97334E+02
 1.01175E-08   3.98718E+02
 1.01725E-08   4.00095E+02
 1.02275E-08   4.01466E+02
 1.02825E-08   4.02831E+02
 1.03375E-08   4.04189E+02
 1.03925E-08   4.05541E+02
 1.04475E-08   4.06887E+02
 1.05025E-08   4.08227E+02
 1.05575E-08   4.09560E+02
 1.06125E-08   4.10888E+02
 1.06675E-08   4.12210E+02
 1.07225E-08   4.13525E+02
 1.07775E-08   4.14834E+02
 1.08325E-08   4.16138E+02
 1.08875E-08   4.17435E+02
 1.09425E-08   4.18727E+02
 1.09975E-08   4.20012E+02
 1.10525E-08   4.21292E+02
 1.11075E-08   4.22566E+02
 1.11625E-08   4.23834E+02
 1.12175E-08   4.25096E+02
 1.12725E-08   4.26353E+02
 1.13275E-08   4.27603E+02
 1.13825E-08   4.28848E+02
 1.14375E-08   4.30087E+02
 1.14925E-08   4.31321E+02
 1.15475E-08   4.32549E+02
 1.16025E-08   4.33771E+02
 1.16575E-08   4.34988E+02
 1.17125E-08   4.36199E+02
 1.17675E-08   4.37405E+02
 1.18225E-08   4.38605E+02
 1.18775E-08   4.39799E+02
 1.19325E-08   4.40989E+02
 1.19875E-08   4.42172E+02
 1.20425E-08   4.43350E+02
 1.20975E-08   4.44523E+02
 1.21525E-08   4.45691E+02
 1.22075E-08   4.46853E+02
 1.22625E-08   4.48010E+02
 1.23175E-08   4.49161E+02
 1.23725E-08   4.50308E+02
 1.24275E-08   4.51449E+02
 1.24825E-08   4.52584E+02
 1.25375E-08   4.53715E+02
 1.25925E-08   4.54841E+02
 1.26475E-08   4.55961E+02
 1.27025E-08   4.57076E+02
 1.27575E-08   4.58186E+02
 1.28125E-08   4.59291E+02
 1.28675E-08   4.60391E+02
 1.29225E-08   4.61486E+02
 1.29775E-08   4.62576E+02
 1.30325E-08   4.63660E+02
 1.30875E-08   4.64740E+02
 1.31425E-08   4.65815E+02
 1.31975E-08   4.66885E+02
 1.32525E-08   4.67951E+02
 1.33075E-08   4.69011E+02
 1.33625E-08   4.70066E+02
 1.34175E-08   4.71117E+02
 1.34725E-08   4.72162E+02
 1.35275E-08   4.73203E+02
 1.35825E-08   4.74239E+02
 1.36375E-08   4.75271E+02
 1.36925E-08   4.76298E+02
 1.37475E-08   4.77320E+02
 1.38025E-08   4.78337E+02
 1.38575E-08   4.79350E+02
 1.39125E-08   4.80358E+02
 1.39675E-08   4.81361E+02
 1.40225E-08   4.82360E+02
 1.40775E-08   4.83354E+02
 1.41325E-08   4.84344E+02
 1.41875E-08   4.85329E+02
 1.42425E-08   4.86310E+02
 1.42975E-08   4.87286E+02
 1.43525E-08   4.88258E+02
 1.44075E-08   4.89225E+02
 1.44625E-08   4.90188E+02
 1.45175E-08   4.91146E+02
 1.45725E-08   4.92100E+02
 1.46275E-08   4.93050E+02
 1.46825E-08   4.93995E+02
 1.47375E-08   4.94936E+02
 1.47925E-08   4.95873E+02
 1.48475E-08   4.96805E+02
 1.49025E-08   4.97733E+02
 1.49575E-08   4.98657E+02
 1.50125E-08   4.99577E+02
 1.50675E-08   5.00492E+02
 1.51225E-08   5.01403E+02
 1.51775E-08   5.02310E+02
 1.52325E-08   5.03213E+02
 1.52875E-08   5.04112E+02
 1.53425E-08   5.05007E+02
 1.53975E-08   5.05897E+02
 1.54525E-08   5.06784E+02
 1.55075E-08   5.07666E+02
 1.55625E-08   5.08544E+02
 1.56175E-08   5.09419E+02
 1.56725E-08   5.10289E+02
 1.57275E-08   5.11155E+02
 1.57825E-08   5.12018E+02
 1.58375E-08   5.12876E+02
 1.58925E-08   5.13731E+02
 1.59475E-08   5.14581E+02
 1.60025E-08   5.15428E+02
 1.60575E-08   5.16271E+02
 1.61125E-08   5.17110E+02
 1.61675E-08   5.17945E+02
 1.62225E-08   5.18776E+02
 1.62775E-08   5.19604E+02
 1.63325E-08   5.20427E+02
 1.63875E-08   5.21247E+02
 1.64425E-08   5.22063E+02
 1.64975E-08   5.22876E+02
 1.65525E-08   5.23684E+02
 1.66075E-08   5.24489E+02
 1.66625E-08   5.25291E+02
 1.67175E-08   5.26088E+02
 1.67725E-08   5.26882E+02
 1.68275E-08   5.27673E+02
 1.68825E-08   5.28459E+02
 1.69375E-08   5.29242E+02
 1.69925E-08   5.30022E+02
 1.70475E-08   5.30798E+02
 1.71025E-08   5.31570E+02
 1.71575E-08   5.32339E+02
 1.72125E-08   5.33105E+02
 1.72675E-08   5.33866E+02
 1.73225E-08   5.34625E+02
 1.73775E-08   5.35380E+02
 1.74325E-08   5.36131E+02
 1.74875E-08   5.36879E+02
 1.75425E-08   5.37623E+02
 1.75975E-08   5.38364E+02
 1.76525E-08   5.39102E+02
 1.77075E-08   5.39836E+02
 1.77625E-08   5.40567E+02
 1.78175E-08   5.41295E+02
 1.78725E-08   5.42019E+02
 1.79275E-08   5.42740E+02
 1.79825E-08   5.43458E+02
 1.80375E-08   5.44172E+02
 1.80925E-08   5.44883E+02
 1.81475E-08   5.45591E+02
 1.82025E-08   5.46296E+02
 1.82575E-08   5.46997E+02
 1.83125E-08   5.47695E+02
 1.83675E-08   5.48390E+02
 1.84225E-08   5.49082E+02
 1.84775E-08   5.49770E+02
 1.85325E-08   5.50455E+02
 1.85875E-08   5.51138E+02
 1.86425E-08   5.51817E+02
 1.86975E-08   5.52493E+02
 1.87525E-08   5.53165E+02
 1.88075E-08   5.53835E+02
 1.88625E-08   5.54502E+02
 1.89175E-08   5.55166E+02
 1.89725E-08   5.55827E+02
 1.90275E-08   5.56484E+02
 1.90825E-08   5.57139E+02
 1.91375E-08   5.57790E+02
 1.91925E-08   5.58439E+02
 1.92475E-08   5.59085E+02
 1.93025E-08   5.59727E+02
 1.93575E-08   5.60367E+02
 1.94125E-08   5.61004E+02
 1.94675E-08   5.61638E+02
 1.95225E-08   5.62269E+02
 1.95775E-08   5.62897E+02
 1.96325E-08   5.63522E+02
 1.96875E-08   5.64144E+02
 1.97425E-08   5.64764E+02
 1.97975E-08   5.65380E+02
 1.98525E-08   5.65994E+02
 1.99075E-08   5.66605E+02
 1.99625E-08   5.67213E+02
 2.00175E-08   5.67819E+02
 2.00725E-08   5.68421E+02
 2.01275E-08   5.69021E+02
 2.01825E-08   5.69618E+02
 2.02375E-08   5.70213E+02
 2.02925E-08   5.70804E+02
 2.03475E-08   5.71393E+02
 2.04025E-08   5.71980E+02
 2.04575E-08   5.72563E+02
 2.05125E-08   5.73144E+02
 2.05675E-08   5.73722E+02
 2.06225E-08   5.74298E+02
 2.06775E-08   5.74871E+02
 2.07325E-08   5.75441E+02
 2.07875E-08   5.76009E+02
 2.08425E-08   5.76574E+02
 2.08975E-08   5.77137E+02
 2.09525E-08   5.77697E+02
 2.10075E-08   5.78254E+02
 2.10625E-08   5.78809E+02
 2.11175E-08   5.79361E+02
 2.11725E-08   5.79910E+02
 2.12275E-08   5.80458E+02
 2.12825E-08   5.81002E+02
 2.13375E-08   5.81544E+02
 2.13925E-08   5.82084E+02
 2.14475E-08   5.82621E+02
 2.15025E-08   5.83156E+02
 2.15575E-08   5.83688E+02
 2.16125E-08   5.84218E+02
 2.16675E-08   5.84746E+02
 2.17225E-08   5.85271E+02
 2.17775E-08   5.85793E+02
 2.18325E-08   5.86313E+02
 2.18875E-08   5.86831E+02
 2.19425E-08   5.87347E+02
 2.19975E-08   5.87860E+02
 2.20525E-08   5.88370E+02
 2.21075E-08   5.88879E+02
 2.21625E-08   5.89385E+02
 2.22175E-08   5.89889E+02
 2.22725E-08   5.90390E+02
 2.23275E-08   5.90889E+02
 2.23825E-08   5.91386E+02
 2.24375E-08   5.91880E+02
 2.24925E-08   5.92373E+02
 2.25475E-08   5.92863E+02
 2.26025E-08   5.93350E+02
 2.26575E-08   5.93836E+02
 2.27125E-08   5.94319E+02
 2.27675E-08   5.94800E+02
 2.28225E-08   5.95279E+02
 2.28775E-08   5.95756E+02
 2.29325E-08   5.96230E+02
 2.29875E-08   5.96703E+02
 2.30425E-08   5.97173E+02
 2.30975E-08   5.97641E+02
 2.31525E-08   5.98107E+02
 2.32075E-08   5.98571E+02
 2.32625E-08   5.99032E+02
 2.33175E-08   5.99492E+02
 2.33725E-08   5.99949E+02
 2.34275E-08   6.00404E+02
 2.34825E-08   6.00857E+02
 2.35375E-08   6.01309E+02
 2.35925E-08   6.01758E+02
 2.36475E-08   6.02205E+02
 2.37025E-08   6.02649E+02
 2.37575E-08   6.03092E+02
 2.38125E-08   6.03533E+02
 2.38675E-08   6.03972E+02
 2.39225E-08   6.04409E+02
 2.39775E-08   6.04843E+02
 2.40325E-08   6.05276E+02
 2.40875E-08   6.05707E+02
 2.41425E-08   6.06136E+02
 2.41975E-08   6.06562E+02
 2.42525E-08   6.06987E+02
 2.43075E-08   6.07410E+02
 2.43625E-08   6.07831E+02
 2.44175E-08   6.08250E+02
 2.44725E-08   6.08667E+02
 2.45275E-08   6.09083E+02
 2.45825E-08   6.09496E+02
 2.46375E-08   6.09907E+02
 2.46925E-08   6.10317E+02
 2.47475E-08   6.10725E+02
 2.48025E-08   6.11130E+02
 2.48575E-08   6.11534E+02
 2.49125E-08   6.11936E+02
 2.49675E-08   6.12337E+02
 2.50225E-08   6.12735E+02
 2.50775E-08   6.13132E+02
 2.51325E-08   6.13526E+02
 2.51875E-08   6.13919E+02
 2.52425E-08   6.14310E+02
 2.52975E-08   6.14700E+02
 2.53525E-08   6.15087E+02
 2.54075E-08   6.15473E+02
 2.54625E-08   6.15857E+02
 2.55175E-08   6.16239E+02
 2.55725E-08   6.16620E+02
 2.56275E-08   6.16998E+02
 2.56825E-08   6.17375E+02
 2.57375E-08   6.17750E+02
 2.57925E-08   6.18124E+02
 2.58475E-08   6.18496E+02
 2.59025E-08   6.18866E+02
 2.59575E-08   6.19234E+02
 2.60125E-08   6.19601E+02
 2.60675E-08   6.19965E+02
 2.61225E-08   6.20329E+02
 2.61775E-08   6.20691E+02
 2.62325E-08   6.21051E+02
 2.62875E-08   6.21409E+02
 2.63425E-08   6.21766E+02
 2.63975E-08   6.22121E+02
 2.64525E-08   6.22474E+02
 2.65075E-08   6.22826E+02
 2.65625E-08   6.23176E+02
 2.66175E-08   6.23525E+02
 2.66725E-08   6.23872E+02
 2.67275E-08   6.24217E+02
 2.67825E-08   6.24561E+02
 2.68375E-08   6.24903E+02
 2.68925E-08   6.25244E+02
 2.69475E-08   6.25583E+02
 2.70025E-08   6.25920E+02
 2.70575E-08   6.26256E+02
 2.71125E-08   6.26591E+02
 2.71675E-08   6.26924E+02
 2.72225E-08   6.27255E+02
 2.72775E-08   6.27585E+02
 2.73325E-08   6.27913E+02
 2.73875E-08   6.28240E+02
 2.74425E-08   6.28565E+02
 2.74975E-08   6.28889E+02
 2.75525E-08   6.29211E+02
 2.76075E-08   6.29532E+02
 2.76625E-08   6.29851E+02
 2.77175E-08   6.30169E+02
 2.77725E-08   6.30485E+02
 2.78275E-08   6.30800E+02
 2.78825E-08   6.31114E+02
 2.79375E-08   6.31426E+02
 2.79925E-08   6.31736E+02
 2.80475E-08   6.32046E+02
 2.81025E-08   6.32353E+02
 2.81575E-08   6.32660E+02
 2.82125E-08   6.32964E+02
 2.82675E-08   6.33268E+02
 2.83225E-08   6.33570E+02
 2.83775E-08   6.33871E+02
 2.84325E-08   6.34171E+02
 2.84875E-08   6.34469E+02
 2.85425E-08   6.34765E+02
 2.85975E-08   6.35060E+02
 2.86525E-08   6.35354E+02
 2.87075E-08   6.35647E+02
 2.87625E-08   6.35938E+02
 2.88175E-08   6.36228E+02
 2.88725E-08   6.36517E+02
 2.89275E-08   6.36804E+02
 2.89825E-08   6.37090E+02
 2.90375E-08   6.37375E+02
 2.90925E-08   6.37658E+02
 2.91475E-08   6.37940E+02
 2.92025E-08   6.38220E+02
 2.92575E-08   6.38500E+02
 2.93125E-08   6.38778E+02
 2.93675E-08   6.39054E+02
 2.94225E-08   6.39330E+02
 2.94775E-08   6.39604E+02
 2.95325E-08   6.39877E+02
 2.95875E-08   6.40149E+02
 2.96425E-08   6.40419E+02
 2.96975E-08   6.40688E+02
 2.97525E-08   6.40956E+02
 2.98075E-08   6.41223E+02
 2.98625E-08   6.41489E+02
 2.99175E-08   6.41753E+02
 2.99725E-08   6.42016E+02
 3.00275E-08   6.42278E+02
 3.00825E-08   6.42539E+02
 3.01375E-08   6.42798E+02
 3.01925E-08   6.43056E+02
 3.02475E-08   6.43313E+02
 3.03025E-08   6.43569E+02
 3.03575E-08   6.43824E+02
 3.04125E-08   6.44077E+02
 3.04675E-08   6.44330E+02
 3.05225E-08   6.44581E+02
 3.05775E-08   6.44831E+02
 3.06325E-08   6.45080E+02
 3.06875E-08   6.45328E+02
 3.07425E-08   6.45574E+02
 3.07975E-08   6.45820E+02
 3.08525E-08   6.46064E+02
 3.09075E-08   6.46307E+02
 3.09625E-08   6.46549E+02
 3.10175E-08   6.46790E+02
 3.10725E-08   6.47030E+02
 3.11275E-08   6.47269E+02
 3.11825E-08   6.47507E+02
 3.12375E-08   6.47743E+02
 3.12925E-08   6.47979E+02
 3.13475E-08   6.48213E+02
 3.14025E-08   6.48446E+02
 3.14575E-08   6.48678E+02
 3.15125E-08   6.48909E+02
 3.15675E-08   6.49140E+02
 3.16225E-08   6.49369E+02
 3.16775E-08   6.49597E+02
 3.17325E-08   6.49823E+02
 3.17875E-08   6.50049E+02
 3.18425E-08   6.50274E+02
 3.18975E-08   6.50498E+02
 3.19525E-08   6.50721E+02
 3.20075E-08   6.50943E+02
 3.20625E-08   6.51163E+02
 3.21175E-08   6.51383E+02
 3.21725E-08   6.51602E+02
 3.22275E-08   6.51819E+02
 3.22825E-08   6.52036E+02
 3.23375E-08   6.52252E+02
 3.23925E-08   6.52466E+02
 3.24475E-08   6.52680E+02
 3.25025E-08   6.52892E+02
 3.25575E-08   6.53104E+02
 3.26125E-08   6.53315E+02
 3.26675E-08   6.53525E+02
 3.27225E-08   6.53734E+02
 3.27775E-08   6.53941E+02
 3.28325E-08   6.54148E+02
 3.28875E-08   6.54354E+02
 3.29425E-08   6.54559E+02
 3.29975E-08   6.54763E+02
 3.30525E-08   6.54966E+02
 3.31075E-08   6.55169E+02
 3.31625E-08   6.55370E+02
 3.32175E-08   6.55570E+02
 3.32725E-08   6.55770E+02
 3.33275E-08   6.55968E+02
 3.33825E-08   6.56166E+02
 3.34375E-08   6.56362E+02
 3.34925E-08   6.56558E+02
 3.35475E-08   6.56753E+02
 3.36025E-08   6.56947E+02
 3.36575E-08   6.57140E+02
 3.37125E-08   6.57332E+02
 3.37675E-08   6.57523E+02
 3.38225E-08   6.57713E+02
 3.38775E-08   6.57903E+02
 3.39325E-08   6.58091E+02
 3.39875E-08   6.58279E+02
 3.40425E-08   6.58466E+02
 3.40975E-08   6.58652E+02
 3.41525E-08   6.58837E+02
 3.42075E-08   6.59021E+02
 3.42625E-08   6.59204E+02
 3.43175E-08   6.59387E+02
 3.43725E-08   6.59569E+02
 3.44275E-08   6.59750E+02
 3.44825E-08   6.59930E+02
 3.45375E-08   6.60109E+02
 3.45925E-08   6.60287E+02
 3.46475E-08   6.60465E+02
 3.47025E-08   6.60642E+02
 3.47575E-08   6.60818E+02
 3.48125E-08   6.60993E+02
 3.48675E-08   6.61167E+02
 3.49225E-08   6.61341E+02
 3.49775E-08   6.61513E+02
 3.50325E-08   6.61685E+02
 3.50875E-08   6.61856E+02
 3.51425E-08   6.62027E+02
 3.51975E-08   6.62196E+02
 3.52525E-08   6.62365E+02
 3.53075E-08   6.62533E+02
 3.53625E-08   6.62700E+02
 3.54175E-08   6.62867E+02
 3.54725E-08   6.63032E+02
 3.55275E-08   6.63197E+02
 3.55825E-08   6.63361E+02
 3.56375E-08   6.63525E+02
 3.56925E-08   6.63687E+02
 3.57475E-08   6.63849E+02
 3.58025E-08   6.64010E+02
 3.58575E-08   6.64170E+02
 3.59125E-08   6.64330E+02
 3.59675E-08   6.64489E+02
 3.60225E-08   6.64647E+02
 3.60775E-08   6.64805E+02
 3.61325E-08   6.64961E+02
 3.61875E-08   6.65117E+02
 3.62425E-08   6.65272E+02
 3.62975E-08   6.65427E+02
 3.63525E-08   6.65580E+02
 3.64075E-08   6.65733E+02
 3.64625E-08   6.65886E+02
 3.65175E-08   6.66037E+02
 3.65725E-08   6.66188E+02
 3.66275E-08   6.66338E+02
 3.66825E-08   6.66488E+02
 3.67375E-08   6.66637E+02
 3.67925E-08   6.66785E+02
 3.68475E-08   6.66933E+02
 3.69025E-08   6.67079E+02
 3.69575E-08   6.67225E+02
 3.70125E-08   6.67371E+02
 3.70675E-08   6.67515E+02
 3.71225E-08   6.67660E+02
 3.71775E-08   6.67803E+02
 3.72325E-08   6.67946E+02
 3.72875E-08   6.68088E+02
 3.73425E-08   6.68229E+02
 3.73975E-08   6.68370E+02
 3.74525E-08   6.68510E+02
 3.75075E-08   6.68650E+02
 3.75625E-08   6.68788E+02
 3.76175E-08   6.68927E+02
 3.76725E-08   6.69064E+02
 3.77275E-08   6.69201E+02
 3.77825E-08   6.69338E+02
 3.78375E-08   6.69473E+02
 3.78925E-08   6.69608E+02
 3.79475E-08   6.69743E+02
 3.80025E-08   6.69876E+02
 3.80575E-08   6.70009E+02
 3.81125E-08   6.70142E+02
 3.81675E-08   6.70274E+02
 3.82225E-08   6.70405E+02
 3.82775E-08   6.70536E+02
 3.83325E-08   6.70666E+02
 3.83875E-08   6.70795E+02
 3.84425E-08   6.70924E+02
 3.84975E-08   6.71053E+02
 3.85525E-08   6.71180E+02
 3.86075E-08   6.71307E+02
 3.86625E-08   6.71434E+02
 3.87175E-08   6.71560E+02
 3.87725E-08   6.71685E+02
 3.88275E-08   6.71810E+02
 3.88825E-08   6.71934E+02
 3.89375E-08   6.72058E+02
 3.89925E-08   6.72181E+02
 3.90475E-08   6.72303E+02
 3.91025E-08   6.72425E+02
 3.91575E-08   6.72546E+02
 3.92125E-08   6.72667E+02
 3.92675E-08   6.72787E+02
 3.93225E-08   6.72907E+02
 3.93775E-08   6.73026E+02
 3.94325E-08   6.73144E+02
 3.94875E-08   6.73262E+02
 3.95425E-08   6.73380E+02
 3.95975E-08   6.73497E+02
 3.96525E-08   6.73613E+02
 3.97075E-08   6.73729E+02
 3.97625E-08   6.73844E+02
 3.98175E-08   6.73959E+02
 3.98725E-08   6.74073E+02
 3.99275E-08   6.74186E+02
 3.99825E-08   6.74300E+02
 4.00375E-08   6.74412E+02
 4.00925E-08   6.74524E+02
 4.01475E-08   6.74636E+02
 4.02025E-08   6.74747E+02
 4.02575E-08   6.74858E+02
 4.03125E-08   6.74968E+02
 4.03675E-08   6.75077E+02
 4.04225E-08   6.75186E+02
 4.04775E-08   6.75295E+02
 4.05325E-08   6.75402E+02
 4.05875E-08   6.75510E+02
